# f [Hz]    h2 Omge_gw
2.000000e-05 7.709280e-08
2.010855e-05 7.303100e-08
2.021768e-05 6.918320e-08
2.032741e-05 6.553820e-08
2.043773e-05 6.208510e-08
2.054865e-05 5.881400e-08
2.066017e-05 5.571530e-08
2.077230e-05 5.277980e-08
2.088504e-05 4.999900e-08
2.099839e-05 4.736470e-08
2.111235e-05 4.486920e-08
2.122693e-05 4.250510e-08
2.134214e-05 4.026570e-08
2.145797e-05 3.814420e-08
2.157443e-05 3.613450e-08
2.169152e-05 3.425600e-08
2.180924e-05 3.254590e-08
2.192761e-05 3.097820e-08
2.204661e-05 2.954120e-08
2.216627e-05 2.822060e-08
2.228657e-05 2.698360e-08
2.240752e-05 2.584580e-08
2.252914e-05 2.477320e-08
2.265141e-05 2.378120e-08
2.277434e-05 2.282980e-08
2.289794e-05 2.196400e-08
2.302222e-05 2.113110e-08
2.314717e-05 2.033800e-08
2.327279e-05 1.961000e-08
2.339910e-05 1.890800e-08
2.352609e-05 1.823120e-08
2.365378e-05 1.760150e-08
2.378215e-05 1.700900e-08
2.391122e-05 1.643640e-08
2.404100e-05 1.588310e-08
2.417147e-05 1.534840e-08
2.430266e-05 1.486090e-08
2.443455e-05 1.439240e-08
2.456717e-05 1.393870e-08
2.470050e-05 1.349920e-08
2.483456e-05 1.307370e-08
2.496934e-05 1.266150e-08
2.510486e-05 1.227570e-08
2.524111e-05 1.191500e-08
2.537810e-05 1.156490e-08
2.551583e-05 1.122500e-08
2.565431e-05 1.089520e-08
2.579354e-05 1.057510e-08
2.593353e-05 1.026430e-08
2.607428e-05 9.962720e-09
2.621579e-05 9.669970e-09
2.635807e-05 9.392540e-09
2.650113e-05 9.136710e-09
2.664496e-05 8.887850e-09
2.678956e-05 8.645770e-09
2.693496e-05 8.410280e-09
2.708114e-05 8.181200e-09
2.722812e-05 7.958370e-09
2.737589e-05 7.741600e-09
2.752447e-05 7.530740e-09
2.767385e-05 7.325620e-09
2.782405e-05 7.126090e-09
2.797505e-05 6.931990e-09
2.812688e-05 6.743180e-09
2.827953e-05 6.559520e-09
2.843302e-05 6.384550e-09
2.858733e-05 6.224390e-09
2.874248e-05 6.068240e-09
2.889847e-05 5.916010e-09
2.905531e-05 5.767610e-09
2.921300e-05 5.622920e-09
2.937155e-05 5.481860e-09
2.953096e-05 5.344340e-09
2.969123e-05 5.210280e-09
2.985237e-05 5.079570e-09
3.001439e-05 4.952140e-09
3.017729e-05 4.827910e-09
3.034107e-05 4.706800e-09
3.050574e-05 4.588730e-09
3.067130e-05 4.473610e-09
3.083776e-05 4.361390e-09
3.100512e-05 4.251980e-09
3.117340e-05 4.145310e-09
3.134258e-05 4.041320e-09
3.151269e-05 3.939940e-09
3.168372e-05 3.841100e-09
3.185567e-05 3.744750e-09
3.202856e-05 3.650810e-09
3.220239e-05 3.559220e-09
3.237716e-05 3.476800e-09
3.255288e-05 3.397080e-09
3.272955e-05 3.319190e-09
3.290719e-05 3.243080e-09
3.308578e-05 3.168710e-09
3.326535e-05 3.096060e-09
3.344589e-05 3.025060e-09
3.362741e-05 2.955700e-09
3.380991e-05 2.887930e-09
3.399341e-05 2.821710e-09
3.417790e-05 2.757000e-09
3.436339e-05 2.693790e-09
3.454989e-05 2.632020e-09
3.473740e-05 2.571670e-09
3.492593e-05 2.512700e-09
3.511548e-05 2.455080e-09
3.530607e-05 2.398790e-09
3.549768e-05 2.343780e-09
3.569034e-05 2.290040e-09
3.588404e-05 2.237530e-09
3.607879e-05 2.186230e-09
3.627460e-05 2.136100e-09
3.647147e-05 2.087110e-09
3.666941e-05 2.039260e-09
3.686843e-05 1.992500e-09
3.706852e-05 1.946810e-09
3.726970e-05 1.902170e-09
3.747198e-05 1.858550e-09
3.767535e-05 1.815940e-09
3.787982e-05 1.774300e-09
3.808540e-05 1.733610e-09
3.829210e-05 1.693860e-09
3.849993e-05 1.655020e-09
3.870888e-05 1.617070e-09
3.891896e-05 1.579990e-09
3.913018e-05 1.543760e-09
3.934255e-05 1.508370e-09
3.955608e-05 1.473780e-09
3.977076e-05 1.439990e-09
3.998660e-05 1.406970e-09
4.020362e-05 1.374710e-09
4.042182e-05 1.343870e-09
4.064120e-05 1.315950e-09
4.086177e-05 1.288620e-09
4.108354e-05 1.261860e-09
4.130651e-05 1.235650e-09
4.153069e-05 1.209990e-09
4.175609e-05 1.184860e-09
4.198271e-05 1.160250e-09
4.221056e-05 1.136150e-09
4.243965e-05 1.112560e-09
4.266998e-05 1.089450e-09
4.290156e-05 1.066820e-09
4.313440e-05 1.044670e-09
4.336850e-05 1.022970e-09
4.360387e-05 1.001720e-09
4.384052e-05 9.809200e-10
4.407846e-05 9.605470e-10
4.431768e-05 9.405980e-10
4.455821e-05 9.210630e-10
4.480004e-05 9.019330e-10
4.504318e-05 8.832010e-10
4.528764e-05 8.648580e-10
4.553343e-05 8.468960e-10
4.578055e-05 8.293070e-10
4.602902e-05 8.120830e-10
4.627883e-05 7.952170e-10
4.653000e-05 7.787010e-10
4.678253e-05 7.625280e-10
4.703643e-05 7.466910e-10
4.729171e-05 7.311830e-10
4.754837e-05 7.159980e-10
4.780643e-05 7.011270e-10
4.806589e-05 6.865650e-10
4.832675e-05 6.723060e-10
4.858904e-05 6.583430e-10
4.885274e-05 6.446700e-10
4.911788e-05 6.312810e-10
4.938446e-05 6.181700e-10
4.965248e-05 6.053310e-10
4.992196e-05 5.927590e-10
5.019290e-05 5.804480e-10
5.046531e-05 5.683930e-10
5.073920e-05 5.565880e-10
5.101457e-05 5.450280e-10
5.129144e-05 5.337090e-10
5.156981e-05 5.226240e-10
5.184970e-05 5.117700e-10
5.213110e-05 5.011410e-10
5.241403e-05 4.907330e-10
5.269849e-05 4.805410e-10
5.298450e-05 4.705600e-10
5.327206e-05 4.607870e-10
5.356118e-05 4.512170e-10
5.385188e-05 4.418460e-10
5.414414e-05 4.326690e-10
5.443800e-05 4.236830e-10
5.473345e-05 4.148840e-10
5.503050e-05 4.062670e-10
5.532917e-05 3.978300e-10
5.562945e-05 3.895670e-10
5.593137e-05 3.814760e-10
5.623492e-05 3.735530e-10
5.654013e-05 3.657950e-10
5.684699e-05 3.581980e-10
5.715551e-05 3.507580e-10
5.746571e-05 3.434740e-10
5.777759e-05 3.363400e-10
5.809116e-05 3.293550e-10
5.840644e-05 3.225140e-10
5.872343e-05 3.158160e-10
5.904214e-05 3.092570e-10
5.936257e-05 3.028340e-10
5.968475e-05 2.965440e-10
6.000868e-05 2.903860e-10
6.033436e-05 2.846730e-10
6.066181e-05 2.793770e-10
6.099104e-05 2.741790e-10
6.132205e-05 2.690790e-10
6.165486e-05 2.640730e-10
6.198948e-05 2.591610e-10
6.232592e-05 2.543390e-10
6.266417e-05 2.496080e-10
6.300427e-05 2.449640e-10
6.334621e-05 2.404070e-10
6.369001e-05 2.359350e-10
6.403567e-05 2.315460e-10
6.438321e-05 2.272380e-10
6.473264e-05 2.230110e-10
6.508396e-05 2.188620e-10
6.543719e-05 2.147910e-10
6.579233e-05 2.107950e-10
6.614940e-05 2.068730e-10
6.650841e-05 2.030250e-10
6.686937e-05 1.992480e-10
6.723229e-05 1.955410e-10
6.759718e-05 1.919040e-10
6.796405e-05 1.883340e-10
6.833291e-05 1.848300e-10
6.870377e-05 1.813920e-10
6.907664e-05 1.780170e-10
6.945154e-05 1.747050e-10
6.982847e-05 1.714550e-10
7.020745e-05 1.682660e-10
7.058848e-05 1.651350e-10
7.097159e-05 1.620630e-10
7.135677e-05 1.590490e-10
7.174404e-05 1.560900e-10
7.213342e-05 1.531860e-10
7.252490e-05 1.503360e-10
7.291851e-05 1.475390e-10
7.331426e-05 1.447950e-10
7.371216e-05 1.421010e-10
7.411222e-05 1.394580e-10
7.451444e-05 1.368630e-10
7.491885e-05 1.343170e-10
7.532546e-05 1.318180e-10
7.573427e-05 1.293660e-10
7.614530e-05 1.269600e-10
7.655856e-05 1.245980e-10
7.697406e-05 1.222800e-10
7.739182e-05 1.200050e-10
7.781185e-05 1.177730e-10
7.823416e-05 1.155820e-10
7.865875e-05 1.134310e-10
7.908566e-05 1.113210e-10
7.951487e-05 1.092500e-10
7.994642e-05 1.072180e-10
8.038031e-05 1.052230e-10
8.081656e-05 1.032660e-10
8.125517e-05 1.013450e-10
8.169617e-05 9.945940e-11
8.213955e-05 9.760920e-11
8.258535e-05 9.579330e-11
8.303356e-05 9.401130e-11
8.348421e-05 9.226230e-11
8.393730e-05 9.054600e-11
8.439285e-05 8.886150e-11
8.485087e-05 8.720840e-11
8.531138e-05 8.558610e-11
8.577439e-05 8.399390e-11
8.623991e-05 8.243130e-11
8.670796e-05 8.089790e-11
8.717854e-05 7.939290e-11
8.765168e-05 7.791590e-11
8.812739e-05 7.646650e-11
8.860568e-05 7.504390e-11
8.908657e-05 7.364790e-11
8.957007e-05 7.227780e-11
9.005619e-05 7.093320e-11
9.054495e-05 6.961360e-11
9.103636e-05 6.831860e-11
9.153044e-05 6.704760e-11
9.202720e-05 6.580030e-11
9.252666e-05 6.457620e-11
9.302882e-05 6.337490e-11
9.353372e-05 6.219590e-11
9.404135e-05 6.103890e-11
9.455174e-05 5.990340e-11
9.506489e-05 5.878900e-11
9.558084e-05 5.769530e-11
9.609958e-05 5.662200e-11
9.662114e-05 5.556870e-11
9.714553e-05 5.453490e-11
9.767276e-05 5.352040e-11
9.820286e-05 5.252470e-11
9.873583e-05 5.154760e-11
9.927170e-05 5.058870e-11
9.981047e-05 4.964760e-11
1.003522e-04 4.872400e-11
1.008968e-04 4.781750e-11
1.014444e-04 4.692800e-11
1.019950e-04 4.605500e-11
1.025485e-04 4.519820e-11
1.031051e-04 4.435740e-11
1.036647e-04 4.353220e-11
1.042273e-04 4.272230e-11
1.047929e-04 4.192760e-11
1.053617e-04 4.114760e-11
1.059335e-04 4.038210e-11
1.065084e-04 3.963090e-11
1.070865e-04 3.889360e-11
1.076677e-04 3.817010e-11
1.082520e-04 3.746000e-11
1.088395e-04 3.676310e-11
1.094302e-04 3.612740e-11
1.100241e-04 3.553370e-11
1.106213e-04 3.494980e-11
1.112216e-04 3.437550e-11
1.118253e-04 3.381060e-11
1.124322e-04 3.325500e-11
1.130424e-04 3.270850e-11
1.136559e-04 3.217100e-11
1.142727e-04 3.164240e-11
1.148929e-04 3.112240e-11
1.155165e-04 3.061100e-11
1.161434e-04 3.010800e-11
1.167738e-04 2.961320e-11
1.174075e-04 2.912660e-11
1.180447e-04 2.864800e-11
1.186854e-04 2.817720e-11
1.193295e-04 2.771420e-11
1.199772e-04 2.725880e-11
1.206283e-04 2.681080e-11
1.212830e-04 2.637030e-11
1.219412e-04 2.593690e-11
1.226030e-04 2.551070e-11
1.232684e-04 2.509150e-11
1.239374e-04 2.467920e-11
1.246101e-04 2.427360e-11
1.252864e-04 2.387480e-11
1.259663e-04 2.348240e-11
1.266500e-04 2.309660e-11
1.273374e-04 2.271700e-11
1.280285e-04 2.234370e-11
1.287233e-04 2.197650e-11
1.294219e-04 2.161540e-11
1.301243e-04 2.126020e-11
1.308305e-04 2.091090e-11
1.315406e-04 2.056720e-11
1.322545e-04 2.022930e-11
1.329723e-04 1.989680e-11
1.336940e-04 1.956990e-11
1.344195e-04 1.924830e-11
1.351491e-04 1.893200e-11
1.358826e-04 1.862090e-11
1.366200e-04 1.831490e-11
1.373615e-04 1.801390e-11
1.381070e-04 1.771790e-11
1.388566e-04 1.742680e-11
1.396102e-04 1.714040e-11
1.403679e-04 1.685870e-11
1.411297e-04 1.658170e-11
1.418956e-04 1.630920e-11
1.426657e-04 1.604120e-11
1.434400e-04 1.577760e-11
1.442185e-04 1.551840e-11
1.450012e-04 1.526330e-11
1.457882e-04 1.501250e-11
1.465794e-04 1.476580e-11
1.473749e-04 1.452320e-11
1.481748e-04 1.428450e-11
1.489790e-04 1.404980e-11
1.497875e-04 1.381890e-11
1.506005e-04 1.359180e-11
1.514178e-04 1.336850e-11
1.522396e-04 1.314880e-11
1.530658e-04 1.293270e-11
1.538966e-04 1.272020e-11
1.547318e-04 1.251120e-11
1.555716e-04 1.230560e-11
1.564159e-04 1.210340e-11
1.572648e-04 1.190450e-11
1.581183e-04 1.170890e-11
1.589765e-04 1.151650e-11
1.598393e-04 1.132720e-11
1.607068e-04 1.114110e-11
1.615790e-04 1.095800e-11
1.624559e-04 1.077790e-11
1.633376e-04 1.060080e-11
1.642241e-04 1.042660e-11
1.651154e-04 1.025530e-11
1.660115e-04 1.008680e-11
1.669125e-04 9.921020e-12
1.678184e-04 9.757990e-12
1.687292e-04 9.597640e-12
1.696449e-04 9.439930e-12
1.705656e-04 9.284800e-12
1.714913e-04 9.132230e-12
1.724221e-04 8.982160e-12
1.733578e-04 8.834560e-12
1.742987e-04 8.689390e-12
1.752447e-04 8.546600e-12
1.761958e-04 8.406150e-12
1.771520e-04 8.268020e-12
1.781135e-04 8.132150e-12
1.790801e-04 7.998520e-12
1.800521e-04 7.867080e-12
1.810292e-04 7.737810e-12
1.820117e-04 7.610650e-12
1.829996e-04 7.485590e-12
1.839928e-04 7.362580e-12
1.849913e-04 7.241600e-12
1.859953e-04 7.122600e-12
1.870048e-04 7.005550e-12
1.880197e-04 6.890430e-12
1.890401e-04 6.777210e-12
1.900661e-04 6.665840e-12
1.910977e-04 6.556300e-12
1.921348e-04 6.448560e-12
1.931776e-04 6.342600e-12
1.942260e-04 6.238370e-12
1.952801e-04 6.135860e-12
1.963399e-04 6.035030e-12
1.974055e-04 5.935860e-12
1.984769e-04 5.838320e-12
1.995541e-04 5.742380e-12
2.006371e-04 5.648010e-12
2.017260e-04 5.555200e-12
2.028209e-04 5.463920e-12
2.039216e-04 5.374130e-12
2.050284e-04 5.285820e-12
2.061411e-04 5.198960e-12
2.072599e-04 5.113520e-12
2.083847e-04 5.029500e-12
2.095157e-04 4.946850e-12
2.106528e-04 4.865940e-12
2.117961e-04 4.796570e-12
2.129455e-04 4.728180e-12
2.141013e-04 4.660770e-12
2.152632e-04 4.594320e-12
2.164315e-04 4.528810e-12
2.176062e-04 4.464250e-12
2.187872e-04 4.400600e-12
2.199746e-04 4.337860e-12
2.211685e-04 4.276010e-12
2.223688e-04 4.215050e-12
2.235757e-04 4.154950e-12
2.247891e-04 4.095710e-12
2.260090e-04 4.037320e-12
2.272357e-04 3.979760e-12
2.284689e-04 3.923020e-12
2.297089e-04 3.867080e-12
2.309556e-04 3.811950e-12
2.322090e-04 3.757600e-12
2.334693e-04 3.704030e-12
2.347364e-04 3.651220e-12
2.360104e-04 3.599160e-12
2.372913e-04 3.547850e-12
2.385791e-04 3.497270e-12
2.398740e-04 3.447400e-12
2.411758e-04 3.398250e-12
2.424847e-04 3.349800e-12
2.438008e-04 3.302040e-12
2.451239e-04 3.254960e-12
2.464543e-04 3.208560e-12
2.477919e-04 3.162810e-12
2.491367e-04 3.117720e-12
2.504888e-04 3.073270e-12
2.518483e-04 3.029450e-12
2.532152e-04 2.986260e-12
2.545894e-04 2.943680e-12
2.559711e-04 2.901710e-12
2.573604e-04 2.860340e-12
2.587571e-04 2.819560e-12
2.601615e-04 2.779360e-12
2.615734e-04 2.739740e-12
2.629931e-04 2.700680e-12
2.644204e-04 2.662170e-12
2.658555e-04 2.624220e-12
2.672984e-04 2.586800e-12
2.687491e-04 2.549920e-12
2.702076e-04 2.513570e-12
2.716741e-04 2.477730e-12
2.731486e-04 2.442400e-12
2.746310e-04 2.407580e-12
2.761215e-04 2.373260e-12
2.776201e-04 2.339420e-12
2.791268e-04 2.306070e-12
2.806417e-04 2.273190e-12
2.821648e-04 2.240780e-12
2.836962e-04 2.208830e-12
2.852359e-04 2.177340e-12
2.867840e-04 2.146290e-12
2.883404e-04 2.115690e-12
2.899053e-04 2.085530e-12
2.914787e-04 2.055800e-12
2.930607e-04 2.026490e-12
2.946512e-04 1.997590e-12
2.962503e-04 1.969110e-12
2.978582e-04 1.941040e-12
2.994747e-04 1.913360e-12
3.011000e-04 1.886090e-12
3.027342e-04 1.859190e-12
3.043772e-04 1.832690e-12
3.060292e-04 1.806560e-12
3.076901e-04 1.780800e-12
3.093600e-04 1.755410e-12
3.110390e-04 1.730380e-12
3.127270e-04 1.705710e-12
3.144243e-04 1.681400e-12
3.161308e-04 1.657420e-12
3.178465e-04 1.633790e-12
3.195715e-04 1.610500e-12
3.213059e-04 1.587540e-12
3.230497e-04 1.564900e-12
3.248030e-04 1.542590e-12
3.265658e-04 1.520600e-12
3.283382e-04 1.498920e-12
3.301202e-04 1.477550e-12
3.319118e-04 1.456480e-12
3.337132e-04 1.435720e-12
3.355243e-04 1.415250e-12
3.373453e-04 1.395070e-12
3.391762e-04 1.375180e-12
3.410170e-04 1.355570e-12
3.428678e-04 1.336250e-12
3.447286e-04 1.317200e-12
3.465995e-04 1.298420e-12
3.484806e-04 1.279900e-12
3.503719e-04 1.261660e-12
3.522735e-04 1.243670e-12
3.541854e-04 1.225940e-12
3.561076e-04 1.208460e-12
3.580403e-04 1.191230e-12
3.599835e-04 1.174240e-12
3.619372e-04 1.157500e-12
3.639016e-04 1.141000e-12
3.658766e-04 1.124730e-12
3.678623e-04 1.108700e-12
3.698588e-04 1.092890e-12
3.718661e-04 1.077310e-12
3.738843e-04 1.061950e-12
3.759135e-04 1.046810e-12
3.779537e-04 1.032100e-12
3.800049e-04 1.019640e-12
3.820673e-04 1.007320e-12
3.841409e-04 9.951550e-13
3.862257e-04 9.831370e-13
3.883219e-04 9.712630e-13
3.904294e-04 9.595330e-13
3.925484e-04 9.479440e-13
3.946788e-04 9.364960e-13
3.968209e-04 9.251860e-13
3.989745e-04 9.140120e-13
4.011399e-04 9.029730e-13
4.033170e-04 8.920680e-13
4.055059e-04 8.812940e-13
4.077067e-04 8.706510e-13
4.099194e-04 8.601360e-13
4.121441e-04 8.497480e-13
4.143810e-04 8.394850e-13
4.166299e-04 8.293460e-13
4.188911e-04 8.193300e-13
4.211645e-04 8.094350e-13
4.234503e-04 7.996590e-13
4.257485e-04 7.900020e-13
4.280591e-04 7.804610e-13
4.303823e-04 7.710350e-13
4.327181e-04 7.617230e-13
4.350666e-04 7.525230e-13
4.374278e-04 7.434350e-13
4.398018e-04 7.344560e-13
4.421888e-04 7.255860e-13
4.445886e-04 7.168230e-13
4.470015e-04 7.081660e-13
4.494275e-04 6.996130e-13
4.518667e-04 6.911640e-13
4.543191e-04 6.828170e-13
4.567848e-04 6.745700e-13
4.592639e-04 6.664230e-13
4.617565e-04 6.583750e-13
4.642625e-04 6.504230e-13
4.667822e-04 6.425680e-13
4.693156e-04 6.348080e-13
4.718627e-04 6.271410e-13
4.744236e-04 6.195670e-13
4.769984e-04 6.120840e-13
4.795872e-04 6.046920e-13
4.821901e-04 5.973890e-13
4.848071e-04 5.901740e-13
4.874382e-04 5.830460e-13
4.900837e-04 5.760050e-13
4.927435e-04 5.690480e-13
4.954178e-04 5.621760e-13
4.981065e-04 5.553860e-13
5.008099e-04 5.486790e-13
5.035279e-04 5.420520e-13
5.062607e-04 5.355060e-13
5.090083e-04 5.290380e-13
5.117708e-04 5.226490e-13
5.145484e-04 5.163370e-13
5.173409e-04 5.101010e-13
5.201487e-04 5.039400e-13
5.229717e-04 4.978540e-13
5.258100e-04 4.918420e-13
5.286637e-04 4.859020e-13
5.315329e-04 4.800330e-13
5.344177e-04 4.742360e-13
5.373181e-04 4.685080e-13
5.402343e-04 4.628500e-13
5.431663e-04 4.572600e-13
5.461142e-04 4.517380e-13
5.490781e-04 4.462820e-13
5.520581e-04 4.408920e-13
5.550543e-04 4.355670e-13
5.580667e-04 4.303070e-13
5.610955e-04 4.251100e-13
5.641407e-04 4.199760e-13
5.672024e-04 4.149040e-13
5.702808e-04 4.098930e-13
5.733759e-04 4.049430e-13
5.764877e-04 4.000520e-13
5.796165e-04 3.952200e-13
5.827622e-04 3.904470e-13
5.859250e-04 3.857320e-13
5.891050e-04 3.810730e-13
5.923022e-04 3.764710e-13
5.955168e-04 3.719240e-13
5.987488e-04 3.674320e-13
6.019984e-04 3.629950e-13
6.052656e-04 3.586110e-13
6.085506e-04 3.542800e-13
6.118533e-04 3.500010e-13
6.151740e-04 3.457740e-13
6.185127e-04 3.415980e-13
6.218696e-04 3.374730e-13
6.252446e-04 3.335230e-13
6.286380e-04 3.302230e-13
6.320498e-04 3.269570e-13
6.354801e-04 3.237220e-13
6.389290e-04 3.205200e-13
6.423967e-04 3.173490e-13
6.458831e-04 3.142100e-13
6.493885e-04 3.111020e-13
6.529129e-04 3.080240e-13
6.564564e-04 3.049770e-13
6.600192e-04 3.019600e-13
6.636013e-04 2.989730e-13
6.672028e-04 2.960160e-13
6.708239e-04 2.930880e-13
6.744647e-04 2.901880e-13
6.781252e-04 2.873180e-13
6.818056e-04 2.844750e-13
6.855059e-04 2.816610e-13
6.892263e-04 2.788750e-13
6.929669e-04 2.761160e-13
6.967279e-04 2.733850e-13
7.005092e-04 2.706810e-13
7.043110e-04 2.680030e-13
7.081335e-04 2.653520e-13
7.119768e-04 2.627270e-13
7.158408e-04 2.601280e-13
7.197259e-04 2.575550e-13
7.236321e-04 2.550070e-13
7.275594e-04 2.524840e-13
7.315081e-04 2.499870e-13
7.354782e-04 2.475140e-13
7.394698e-04 2.450650e-13
7.434831e-04 2.426410e-13
7.475182e-04 2.402410e-13
7.515752e-04 2.378640e-13
7.556542e-04 2.355110e-13
7.597553e-04 2.331810e-13
7.638787e-04 2.308750e-13
7.680245e-04 2.285910e-13
7.721928e-04 2.263300e-13
7.763836e-04 2.240910e-13
7.805973e-04 2.218740e-13
7.848338e-04 2.196790e-13
7.890933e-04 2.175060e-13
7.933759e-04 2.153540e-13
7.976818e-04 2.132240e-13
8.020110e-04 2.111150e-13
8.063638e-04 2.090260e-13
8.107401e-04 2.069590e-13
8.151402e-04 2.049110e-13
8.195642e-04 2.028840e-13
8.240122e-04 2.008770e-13
8.284843e-04 1.988900e-13
8.329807e-04 1.969230e-13
8.375016e-04 1.949750e-13
8.420469e-04 1.930460e-13
8.466169e-04 1.911360e-13
8.512117e-04 1.892460e-13
8.558315e-04 1.873740e-13
8.604763e-04 1.855200e-13
8.651464e-04 1.836850e-13
8.698417e-04 1.818680e-13
8.745626e-04 1.800690e-13
8.793091e-04 1.782870e-13
8.840813e-04 1.765240e-13
8.888795e-04 1.747770e-13
8.937037e-04 1.730490e-13
8.985541e-04 1.713370e-13
9.034308e-04 1.696420e-13
9.083339e-04 1.679640e-13
9.132637e-04 1.663020e-13
9.182202e-04 1.646570e-13
9.232036e-04 1.630280e-13
9.282141e-04 1.614150e-13
9.332518e-04 1.598190e-13
9.383168e-04 1.582380e-13
9.434093e-04 1.566720e-13
9.485294e-04 1.551230e-13
9.536774e-04 1.535880e-13
9.588532e-04 1.520690e-13
9.640572e-04 1.505640e-13
9.692894e-04 1.492410e-13
9.745500e-04 1.480920e-13
9.798391e-04 1.469510e-13
9.851570e-04 1.458190e-13
9.905037e-04 1.446960e-13
9.958794e-04 1.435820e-13
1.001284e-03 1.424760e-13
1.006719e-03 1.413780e-13
1.012182e-03 1.402890e-13
1.017676e-03 1.392090e-13
1.023199e-03 1.381370e-13
1.028752e-03 1.370730e-13
1.034335e-03 1.360170e-13
1.039949e-03 1.349690e-13
1.045593e-03 1.339300e-13
1.051268e-03 1.328980e-13
1.056973e-03 1.318740e-13
1.062710e-03 1.308590e-13
1.068477e-03 1.298510e-13
1.074276e-03 1.288500e-13
1.080107e-03 1.278580e-13
1.085969e-03 1.268730e-13
1.091863e-03 1.258960e-13
1.097788e-03 1.249260e-13
1.103746e-03 1.239640e-13
1.109737e-03 1.230090e-13
1.115760e-03 1.220620e-13
1.121815e-03 1.211220e-13
1.127903e-03 1.201890e-13
1.134025e-03 1.192630e-13
1.140180e-03 1.183440e-13
1.146368e-03 1.174330e-13
1.152589e-03 1.165280e-13
1.158845e-03 1.156310e-13
1.165134e-03 1.147400e-13
1.171458e-03 1.138560e-13
1.177815e-03 1.129790e-13
1.184208e-03 1.121090e-13
1.190635e-03 1.112450e-13
1.197097e-03 1.103890e-13
1.203594e-03 1.095380e-13
1.210126e-03 1.086950e-13
1.216693e-03 1.078570e-13
1.223297e-03 1.070270e-13
1.229936e-03 1.062020e-13
1.236611e-03 1.053840e-13
1.243323e-03 1.045730e-13
1.250070e-03 1.037670e-13
1.256855e-03 1.029680e-13
1.263676e-03 1.021750e-13
1.270535e-03 1.013880e-13
