# f [Hz]    h2 Omge_gw
1.000000e-05 6.038810e-07
1.005776e-05 5.700840e-07
1.011585e-05 5.381790e-07
1.017428e-05 5.080590e-07
1.023305e-05 4.796250e-07
1.029215e-05 4.527820e-07
1.035160e-05 4.274410e-07
1.041139e-05 4.035190e-07
1.047153e-05 3.809360e-07
1.053201e-05 3.596160e-07
1.059284e-05 3.394900e-07
1.065403e-05 3.204900e-07
1.071556e-05 3.025530e-07
1.077746e-05 2.856200e-07
1.083971e-05 2.697680e-07
1.090232e-05 2.554220e-07
1.096529e-05 2.423520e-07
1.102862e-05 2.304070e-07
1.109232e-05 2.195050e-07
1.115639e-05 2.093650e-07
1.122083e-05 1.999840e-07
1.128564e-05 1.912900e-07
1.135083e-05 1.831500e-07
1.141639e-05 1.755310e-07
1.148233e-05 1.684570e-07
1.154865e-05 1.616670e-07
1.161536e-05 1.554230e-07
1.168245e-05 1.495100e-07
1.174992e-05 1.438220e-07
1.181779e-05 1.384610e-07
1.188605e-05 1.335060e-07
1.195470e-05 1.287290e-07
1.202375e-05 1.241230e-07
1.209320e-05 1.196820e-07
1.216305e-05 1.156370e-07
1.223330e-05 1.117620e-07
1.230396e-05 1.080160e-07
1.237503e-05 1.043970e-07
1.244651e-05 1.008980e-07
1.251840e-05 9.751680e-08
1.259070e-05 9.441740e-08
1.266343e-05 9.146810e-08
1.273657e-05 8.861100e-08
1.281014e-05 8.584300e-08
1.288413e-05 8.316160e-08
1.295855e-05 8.056390e-08
1.303339e-05 7.804730e-08
1.310867e-05 7.560930e-08
1.318439e-05 7.324750e-08
1.326054e-05 7.110920e-08
1.333713e-05 6.905010e-08
1.341417e-05 6.705060e-08
1.349165e-05 6.510910e-08
1.356958e-05 6.322370e-08
1.364795e-05 6.139290e-08
1.372678e-05 5.961520e-08
1.380607e-05 5.788890e-08
1.388581e-05 5.621260e-08
1.396602e-05 5.458490e-08
1.404668e-05 5.300430e-08
1.412782e-05 5.146950e-08
1.420942e-05 4.997910e-08
1.429149e-05 4.853180e-08
1.437404e-05 4.723370e-08
1.445706e-05 4.597390e-08
1.454057e-05 4.474770e-08
1.462455e-05 4.355420e-08
1.470902e-05 4.239260e-08
1.479398e-05 4.126190e-08
1.487943e-05 4.016140e-08
1.496537e-05 3.909020e-08
1.505181e-05 3.804760e-08
1.513875e-05 3.703280e-08
1.522619e-05 3.604510e-08
1.531414e-05 3.508370e-08
1.540259e-05 3.414800e-08
1.549156e-05 3.323720e-08
1.558103e-05 3.235070e-08
1.567103e-05 3.148790e-08
1.576155e-05 3.064810e-08
1.585258e-05 2.983060e-08
1.594415e-05 2.903500e-08
1.603624e-05 2.826060e-08
1.612886e-05 2.750680e-08
1.622202e-05 2.677320e-08
1.631572e-05 2.605910e-08
1.640996e-05 2.536410e-08
1.650474e-05 2.471790e-08
1.660008e-05 2.411520e-08
1.669596e-05 2.352730e-08
1.679239e-05 2.295370e-08
1.688938e-05 2.239400e-08
1.698694e-05 2.184800e-08
1.708505e-05 2.131540e-08
1.718373e-05 2.079570e-08
1.728299e-05 2.028870e-08
1.738281e-05 1.979400e-08
1.748322e-05 1.931140e-08
1.758420e-05 1.884060e-08
1.768576e-05 1.838130e-08
1.778792e-05 1.793310e-08
1.789066e-05 1.749590e-08
1.799399e-05 1.706930e-08
1.809793e-05 1.665320e-08
1.820246e-05 1.624710e-08
1.830760e-05 1.585100e-08
1.841334e-05 1.546460e-08
1.851969e-05 1.508750e-08
1.862666e-05 1.471970e-08
1.873425e-05 1.436080e-08
1.884246e-05 1.401070e-08
1.895129e-05 1.366910e-08
1.906075e-05 1.333580e-08
1.917085e-05 1.301070e-08
1.928158e-05 1.269350e-08
1.939295e-05 1.238400e-08
1.950496e-05 1.208210e-08
1.961762e-05 1.178750e-08
1.973093e-05 1.150010e-08
1.984490e-05 1.121970e-08
1.995952e-05 1.094620e-08
2.007480e-05 1.067930e-08
2.019076e-05 1.041890e-08
2.030738e-05 1.016490e-08
2.042467e-05 9.917080e-09
2.054264e-05 9.675300e-09
2.066130e-05 9.439410e-09
2.078064e-05 9.209270e-09
2.090066e-05 8.984740e-09
2.102139e-05 8.765680e-09
2.114280e-05 8.551970e-09
2.126492e-05 8.343470e-09
2.138775e-05 8.140040e-09
2.151128e-05 7.941580e-09
2.163553e-05 7.747960e-09
2.176050e-05 7.560910e-09
2.188619e-05 7.393930e-09
2.201260e-05 7.230640e-09
2.213974e-05 7.070950e-09
2.226762e-05 6.914790e-09
2.239624e-05 6.762080e-09
2.252560e-05 6.612740e-09
2.265571e-05 6.466700e-09
2.278656e-05 6.323890e-09
2.291818e-05 6.184230e-09
2.305055e-05 6.047650e-09
2.318369e-05 5.914090e-09
2.331760e-05 5.783480e-09
2.345228e-05 5.655760e-09
2.358774e-05 5.530850e-09
2.372398e-05 5.408700e-09
2.386101e-05 5.289250e-09
2.399883e-05 5.172440e-09
2.413745e-05 5.058210e-09
2.427686e-05 4.946500e-09
2.441709e-05 4.837260e-09
2.455812e-05 4.730430e-09
2.469997e-05 4.625960e-09
2.484263e-05 4.523800e-09
2.498612e-05 4.423890e-09
2.513044e-05 4.326190e-09
2.527559e-05 4.230650e-09
2.542158e-05 4.137220e-09
2.556842e-05 4.045850e-09
2.571610e-05 3.956500e-09
2.586463e-05 3.869120e-09
2.601403e-05 3.783670e-09
2.616428e-05 3.700110e-09
2.631541e-05 3.618400e-09
2.646740e-05 3.538480e-09
2.662028e-05 3.460340e-09
2.677404e-05 3.383920e-09
2.692868e-05 3.309190e-09
2.708422e-05 3.236100e-09
2.724066e-05 3.164640e-09
2.739800e-05 3.094750e-09
2.755625e-05 3.026400e-09
2.771541e-05 2.959560e-09
2.787550e-05 2.894200e-09
2.803650e-05 2.830280e-09
2.819844e-05 2.767780e-09
2.836131e-05 2.706650e-09
2.852513e-05 2.646880e-09
2.868989e-05 2.588420e-09
2.885560e-05 2.531260e-09
2.902227e-05 2.475360e-09
2.918990e-05 2.420690e-09
2.935850e-05 2.367230e-09
2.952807e-05 2.314950e-09
2.969863e-05 2.263820e-09
2.987016e-05 2.213830e-09
3.004269e-05 2.164940e-09
3.021622e-05 2.117130e-09
3.039075e-05 2.070370e-09
3.056628e-05 2.024650e-09
3.074283e-05 1.979930e-09
3.092040e-05 1.936210e-09
3.109900e-05 1.893450e-09
3.127862e-05 1.851630e-09
3.145929e-05 1.810740e-09
3.164099e-05 1.770750e-09
3.182375e-05 1.731640e-09
3.200756e-05 1.693400e-09
3.219244e-05 1.656000e-09
3.237838e-05 1.619430e-09
3.256540e-05 1.583660e-09
3.275349e-05 1.548690e-09
3.294268e-05 1.514490e-09
3.313295e-05 1.481040e-09
3.332433e-05 1.448330e-09
3.351681e-05 1.416350e-09
3.371040e-05 1.385070e-09
3.390511e-05 1.354480e-09
3.410094e-05 1.324570e-09
3.429791e-05 1.295310e-09
3.449601e-05 1.266710e-09
3.469526e-05 1.238730e-09
3.489566e-05 1.211370e-09
3.509721e-05 1.184620e-09
3.529993e-05 1.158460e-09
3.550382e-05 1.132880e-09
3.570889e-05 1.107860e-09
3.591515e-05 1.083390e-09
3.612259e-05 1.059460e-09
3.633123e-05 1.036070e-09
3.654108e-05 1.013180e-09
3.675214e-05 9.908090e-10
3.696442e-05 9.689270e-10
3.717792e-05 9.475290e-10
3.739266e-05 9.266030e-10
3.760864e-05 9.061390e-10
3.782587e-05 8.861280e-10
3.804435e-05 8.665580e-10
3.826409e-05 8.485020e-10
3.848510e-05 8.317160e-10
3.870739e-05 8.152620e-10
3.893096e-05 7.991340e-10
3.915583e-05 7.833240e-10
3.938199e-05 7.678280e-10
3.960946e-05 7.526380e-10
3.983824e-05 7.377480e-10
4.006834e-05 7.231530e-10
4.029978e-05 7.088470e-10
4.053255e-05 6.948240e-10
4.076666e-05 6.810780e-10
4.100213e-05 6.676040e-10
4.123896e-05 6.543970e-10
4.147715e-05 6.414510e-10
4.171672e-05 6.287610e-10
4.195767e-05 6.163220e-10
4.220002e-05 6.041300e-10
4.244377e-05 5.921780e-10
4.268892e-05 5.804630e-10
4.293549e-05 5.689800e-10
4.318348e-05 5.577230e-10
4.343291e-05 5.466900e-10
4.368377e-05 5.358750e-10
4.393609e-05 5.252730e-10
4.418986e-05 5.148820e-10
4.444510e-05 5.046960e-10
4.470182e-05 4.947110e-10
4.496001e-05 4.849250e-10
4.521970e-05 4.753310e-10
4.548089e-05 4.659280e-10
4.574358e-05 4.567100e-10
4.600779e-05 4.476750e-10
4.627353e-05 4.388190e-10
4.654081e-05 4.301380e-10
4.680963e-05 4.216280e-10
4.708000e-05 4.132870e-10
4.735193e-05 4.051110e-10
4.762543e-05 3.970970e-10
4.790051e-05 3.892410e-10
4.817719e-05 3.815400e-10
4.845545e-05 3.739920e-10
4.873533e-05 3.665940e-10
4.901682e-05 3.593410e-10
4.929994e-05 3.522320e-10
4.958470e-05 3.452640e-10
4.987110e-05 3.384340e-10
5.015915e-05 3.317380e-10
5.044887e-05 3.251760e-10
5.074026e-05 3.187430e-10
5.103333e-05 3.124370e-10
5.132810e-05 3.062560e-10
5.162457e-05 3.001970e-10
5.192275e-05 2.942580e-10
5.222265e-05 2.884370e-10
5.252429e-05 2.827310e-10
5.282767e-05 2.771380e-10
5.313280e-05 2.716550e-10
5.343969e-05 2.662810e-10
5.374836e-05 2.610130e-10
5.405880e-05 2.558490e-10
5.437105e-05 2.507880e-10
5.468509e-05 2.458270e-10
5.500095e-05 2.409630e-10
5.531863e-05 2.361960e-10
5.563815e-05 2.315240e-10
5.595951e-05 2.269430e-10
5.628273e-05 2.224540e-10
5.660782e-05 2.180530e-10
5.693479e-05 2.137390e-10
5.726364e-05 2.095110e-10
5.759439e-05 2.053660e-10
5.792705e-05 2.013030e-10
5.826164e-05 1.973210e-10
5.859815e-05 1.934170e-10
5.893662e-05 1.895910e-10
5.927703e-05 1.858400e-10
5.961941e-05 1.821640e-10
5.996377e-05 1.785600e-10
6.031012e-05 1.750270e-10
6.065847e-05 1.715650e-10
6.100883e-05 1.681710e-10
6.136121e-05 1.648440e-10
6.171563e-05 1.615830e-10
6.207210e-05 1.583860e-10
6.243063e-05 1.552530e-10
6.279122e-05 1.521810e-10
6.315390e-05 1.491710e-10
6.351868e-05 1.462200e-10
6.388556e-05 1.433270e-10
6.425456e-05 1.404920e-10
6.462569e-05 1.377120e-10
6.499897e-05 1.349880e-10
6.537440e-05 1.323170e-10
6.575200e-05 1.297000e-10
6.613178e-05 1.271340e-10
6.651375e-05 1.246190e-10
6.689793e-05 1.221530e-10
6.728433e-05 1.197370e-10
6.767297e-05 1.173680e-10
6.806384e-05 1.150460e-10
6.845698e-05 1.127700e-10
6.885238e-05 1.105390e-10
6.925007e-05 1.083520e-10
6.965005e-05 1.062090e-10
7.005235e-05 1.041080e-10
7.045697e-05 1.020480e-10
7.086393e-05 1.000290e-10
7.127323e-05 9.805040e-11
7.168490e-05 9.611070e-11
7.209895e-05 9.420930e-11
7.251539e-05 9.234560e-11
7.293424e-05 9.051870e-11
7.335551e-05 8.872800e-11
7.377920e-05 8.697260e-11
7.420535e-05 8.525210e-11
7.463396e-05 8.356550e-11
7.506504e-05 8.191230e-11
7.549861e-05 8.029180e-11
7.593469e-05 7.870340e-11
7.637328e-05 7.714640e-11
7.681441e-05 7.562020e-11
7.725809e-05 7.412420e-11
7.770433e-05 7.265780e-11
7.815315e-05 7.122040e-11
7.860456e-05 6.981150e-11
7.905857e-05 6.843040e-11
7.951521e-05 6.707660e-11
7.997449e-05 6.574960e-11
8.043642e-05 6.444890e-11
8.090102e-05 6.317390e-11
8.136830e-05 6.192410e-11
8.183828e-05 6.069910e-11
8.231097e-05 5.949830e-11
8.278640e-05 5.832120e-11
8.326457e-05 5.716740e-11
8.374550e-05 5.603650e-11
8.422921e-05 5.492790e-11
8.471572e-05 5.384130e-11
8.520503e-05 5.277610e-11
8.569717e-05 5.173200e-11
8.619215e-05 5.070860e-11
8.669000e-05 4.970550e-11
8.719071e-05 4.872210e-11
8.769432e-05 4.775830e-11
8.820084e-05 4.681340e-11
8.871029e-05 4.588730e-11
8.922267e-05 4.497950e-11
8.973802e-05 4.408970e-11
9.025634e-05 4.321750e-11
9.077766e-05 4.237280e-11
9.130199e-05 4.163230e-11
9.182935e-05 4.090470e-11
9.235975e-05 4.018980e-11
9.289321e-05 3.948750e-11
9.342976e-05 3.879740e-11
9.396941e-05 3.811930e-11
9.451217e-05 3.745320e-11
9.505807e-05 3.679860e-11
9.560712e-05 3.615550e-11
9.615934e-05 3.552370e-11
9.671476e-05 3.490290e-11
9.727338e-05 3.429290e-11
9.783522e-05 3.369360e-11
9.840032e-05 3.310480e-11
9.896867e-05 3.252620e-11
9.954031e-05 3.195780e-11
1.001153e-04 3.139930e-11
1.006935e-04 3.085050e-11
1.012751e-04 3.031140e-11
1.018601e-04 2.978170e-11
1.024484e-04 2.926120e-11
1.030402e-04 2.874980e-11
1.036353e-04 2.824740e-11
1.042339e-04 2.775370e-11
1.048360e-04 2.726870e-11
1.054415e-04 2.679220e-11
1.060505e-04 2.632390e-11
1.066631e-04 2.586390e-11
1.072791e-04 2.541190e-11
1.078988e-04 2.496780e-11
1.085220e-04 2.453140e-11
1.091488e-04 2.410270e-11
1.097793e-04 2.368150e-11
1.104133e-04 2.326770e-11
1.110511e-04 2.286100e-11
1.116925e-04 2.246150e-11
1.123376e-04 2.206900e-11
1.129865e-04 2.168330e-11
1.136391e-04 2.130430e-11
1.142955e-04 2.093200e-11
1.149556e-04 2.056620e-11
1.156196e-04 2.020680e-11
1.162874e-04 1.985370e-11
1.169591e-04 1.950670e-11
1.176347e-04 1.916580e-11
1.183141e-04 1.883080e-11
1.189975e-04 1.850180e-11
1.196848e-04 1.817840e-11
1.203761e-04 1.786070e-11
1.210714e-04 1.754860e-11
1.217707e-04 1.724190e-11
1.224740e-04 1.694060e-11
1.231814e-04 1.664450e-11
1.238929e-04 1.635370e-11
1.246085e-04 1.606790e-11
1.253283e-04 1.578700e-11
1.260522e-04 1.551120e-11
1.267802e-04 1.524010e-11
1.275125e-04 1.497370e-11
1.282490e-04 1.471210e-11
1.289898e-04 1.445490e-11
1.297348e-04 1.420230e-11
1.304842e-04 1.395410e-11
1.312378e-04 1.371030e-11
1.319959e-04 1.347070e-11
1.327583e-04 1.323520e-11
1.335251e-04 1.300390e-11
1.342963e-04 1.277670e-11
1.350720e-04 1.255340e-11
1.358522e-04 1.233400e-11
1.366368e-04 1.211850e-11
1.374260e-04 1.190670e-11
1.382198e-04 1.169860e-11
1.390182e-04 1.149420e-11
1.398211e-04 1.129330e-11
1.406287e-04 1.109590e-11
1.414410e-04 1.090200e-11
1.422579e-04 1.071150e-11
1.430796e-04 1.052430e-11
1.439060e-04 1.034040e-11
1.447372e-04 1.015960e-11
1.455732e-04 9.982100e-12
1.464141e-04 9.807650e-12
1.472597e-04 9.636250e-12
1.481103e-04 9.467850e-12
1.489658e-04 9.302380e-12
1.498262e-04 9.139810e-12
1.506916e-04 8.980090e-12
1.515620e-04 8.823150e-12
1.524374e-04 8.668950e-12
1.533179e-04 8.517450e-12
1.542034e-04 8.368600e-12
1.550941e-04 8.222350e-12
1.559899e-04 8.078660e-12
1.568909e-04 7.937470e-12
1.577971e-04 7.798760e-12
1.587085e-04 7.662460e-12
1.596252e-04 7.528550e-12
1.605472e-04 7.396980e-12
1.614745e-04 7.267710e-12
1.624072e-04 7.140700e-12
1.633453e-04 7.015910e-12
1.642887e-04 6.893300e-12
1.652377e-04 6.772830e-12
1.661921e-04 6.654470e-12
1.671520e-04 6.538170e-12
1.681175e-04 6.423910e-12
1.690885e-04 6.311650e-12
1.700651e-04 6.201340e-12
1.710474e-04 6.092970e-12
1.720354e-04 5.986490e-12
1.730291e-04 5.881870e-12
1.740285e-04 5.779070e-12
1.750337e-04 5.678080e-12
1.760446e-04 5.578850e-12
1.770615e-04 5.481350e-12
1.780842e-04 5.385560e-12
1.791128e-04 5.291440e-12
1.801473e-04 5.198970e-12
1.811878e-04 5.108110e-12
1.822344e-04 5.018840e-12
1.832870e-04 4.931130e-12
1.843456e-04 4.844950e-12
1.854104e-04 4.760280e-12
1.864813e-04 4.677090e-12
1.875584e-04 4.595350e-12
1.886418e-04 4.515040e-12
1.897313e-04 4.436140e-12
1.908272e-04 4.358610e-12
1.919294e-04 4.282440e-12
1.930380e-04 4.207600e-12
1.941530e-04 4.134070e-12
1.952744e-04 4.061820e-12
1.964023e-04 3.990830e-12
1.975367e-04 3.921090e-12
1.986777e-04 3.852560e-12
1.998252e-04 3.785240e-12
2.009794e-04 3.719080e-12
2.021403e-04 3.654090e-12
2.033078e-04 3.590230e-12
2.044821e-04 3.527490e-12
2.056632e-04 3.465840e-12
2.068511e-04 3.405270e-12
2.080459e-04 3.345760e-12
2.092475e-04 3.287290e-12
2.104561e-04 3.229840e-12
2.116717e-04 3.177690e-12
2.128943e-04 3.129500e-12
2.141240e-04 3.082050e-12
2.153608e-04 3.035310e-12
2.166047e-04 2.989290e-12
2.178558e-04 2.943960e-12
2.191141e-04 2.899320e-12
2.203797e-04 2.855350e-12
2.216526e-04 2.812050e-12
2.229329e-04 2.769410e-12
2.242205e-04 2.727420e-12
2.255156e-04 2.686060e-12
2.268182e-04 2.645330e-12
2.281283e-04 2.605220e-12
2.294459e-04 2.565710e-12
2.307712e-04 2.526800e-12
2.321041e-04 2.488490e-12
2.334447e-04 2.450750e-12
2.347931e-04 2.413590e-12
2.361493e-04 2.376990e-12
2.375133e-04 2.340950e-12
2.388851e-04 2.305450e-12
2.402649e-04 2.270490e-12
2.416527e-04 2.236060e-12
2.430484e-04 2.202160e-12
2.444523e-04 2.168760e-12
2.458642e-04 2.135880e-12
2.472843e-04 2.103490e-12
2.487126e-04 2.071590e-12
2.501492e-04 2.040180e-12
2.515940e-04 2.009240e-12
2.530472e-04 1.978770e-12
2.545088e-04 1.948770e-12
2.559789e-04 1.919220e-12
2.574574e-04 1.890120e-12
2.589444e-04 1.861450e-12
2.604401e-04 1.833230e-12
2.619444e-04 1.805430e-12
2.634574e-04 1.778050e-12
2.649791e-04 1.751090e-12
2.665096e-04 1.724540e-12
2.680489e-04 1.698390e-12
2.695972e-04 1.672630e-12
2.711544e-04 1.647270e-12
2.727205e-04 1.622290e-12
2.742958e-04 1.597690e-12
2.758801e-04 1.573460e-12
2.774736e-04 1.549600e-12
2.790762e-04 1.526110e-12
2.806882e-04 1.502960e-12
2.823094e-04 1.480170e-12
2.839400e-04 1.457730e-12
2.855800e-04 1.435620e-12
2.872295e-04 1.413850e-12
2.888886e-04 1.392420e-12
2.905572e-04 1.371300e-12
2.922354e-04 1.350510e-12
2.939234e-04 1.330030e-12
2.956211e-04 1.309860e-12
2.973286e-04 1.290000e-12
2.990459e-04 1.270440e-12
3.007732e-04 1.251170e-12
3.025104e-04 1.232200e-12
3.042577e-04 1.213510e-12
3.060151e-04 1.195110e-12
3.077826e-04 1.176990e-12
3.095604e-04 1.159140e-12
3.113484e-04 1.141570e-12
3.131467e-04 1.124260e-12
3.149554e-04 1.107210e-12
3.167746e-04 1.090420e-12
3.186043e-04 1.073880e-12
3.204445e-04 1.057600e-12
3.222954e-04 1.041560e-12
3.241570e-04 1.025770e-12
3.260293e-04 1.010210e-12
3.279124e-04 9.948960e-13
3.298064e-04 9.798090e-13
3.317114e-04 9.649520e-13
3.336273e-04 9.503190e-13
3.355544e-04 9.359090e-13
3.374925e-04 9.217170e-13
3.394418e-04 9.077400e-13
3.414024e-04 8.939760e-13
3.433744e-04 8.804200e-13
3.453577e-04 8.670690e-13
3.473525e-04 8.539210e-13
3.493588e-04 8.409730e-13
3.513766e-04 8.282200e-13
3.534062e-04 8.156610e-13
3.554474e-04 8.032930e-13
3.575005e-04 7.911120e-13
3.595654e-04 7.791160e-13
3.616422e-04 7.673010e-13
3.637311e-04 7.556660e-13
3.658320e-04 7.442070e-13
3.679450e-04 7.329230e-13
3.700702e-04 7.218090e-13
3.722077e-04 7.108630e-13
3.743576e-04 7.000840e-13
3.765199e-04 6.894680e-13
3.786946e-04 6.790130e-13
3.808820e-04 6.687170e-13
3.830819e-04 6.585770e-13
3.852946e-04 6.485900e-13
3.875200e-04 6.387550e-13
3.897583e-04 6.290690e-13
3.920096e-04 6.195300e-13
3.942738e-04 6.101360e-13
3.965511e-04 6.008840e-13
3.988416e-04 5.917720e-13
4.011452e-04 5.827990e-13
4.034622e-04 5.741650e-13
4.057926e-04 5.667890e-13
4.081365e-04 5.595080e-13
4.104938e-04 5.523210e-13
4.128648e-04 5.452260e-13
4.152495e-04 5.382220e-13
4.176480e-04 5.313080e-13
4.200603e-04 5.244830e-13
4.224866e-04 5.177450e-13
4.249268e-04 5.110950e-13
4.273812e-04 5.045290e-13
4.298497e-04 4.980480e-13
4.323325e-04 4.916500e-13
4.348297e-04 4.853340e-13
4.373412e-04 4.791000e-13
4.398673e-04 4.729450e-13
4.424079e-04 4.668700e-13
4.449633e-04 4.608730e-13
4.475334e-04 4.549520e-13
4.501183e-04 4.491080e-13
4.527182e-04 4.433390e-13
4.553330e-04 4.376440e-13
4.579630e-04 4.320220e-13
4.606082e-04 4.264720e-13
4.632687e-04 4.209940e-13
4.659445e-04 4.155860e-13
4.686358e-04 4.102470e-13
4.713426e-04 4.049770e-13
4.740650e-04 3.997750e-13
4.768032e-04 3.946390e-13
4.795572e-04 3.895700e-13
4.823271e-04 3.845650e-13
4.851130e-04 3.796250e-13
4.879150e-04 3.747490e-13
4.907332e-04 3.699350e-13
4.935676e-04 3.651820e-13
4.964185e-04 3.604910e-13
4.992858e-04 3.558610e-13
5.021696e-04 3.512890e-13
5.050701e-04 3.467770e-13
5.079874e-04 3.423220e-13
5.109215e-04 3.379240e-13
5.138726e-04 3.335830e-13
5.168407e-04 3.292980e-13
5.198259e-04 3.250680e-13
5.228284e-04 3.208920e-13
5.258482e-04 3.167700e-13
5.288855e-04 3.127010e-13
5.319403e-04 3.086840e-13
5.350128e-04 3.047190e-13
5.381030e-04 3.008040e-13
5.412111e-04 2.969400e-13
5.443371e-04 2.931260e-13
5.474812e-04 2.893600e-13
5.506434e-04 2.856430e-13
5.538239e-04 2.819740e-13
5.570228e-04 2.783520e-13
5.602401e-04 2.747760e-13
5.634760e-04 2.712460e-13
5.667306e-04 2.677620e-13
5.700040e-04 2.643220e-13
5.732964e-04 2.609270e-13
5.766077e-04 2.575750e-13
5.799382e-04 2.542660e-13
5.832879e-04 2.510000e-13
5.866569e-04 2.477750e-13
5.900454e-04 2.445930e-13
5.934535e-04 2.414510e-13
5.968813e-04 2.383490e-13
6.003288e-04 2.352870e-13
6.037963e-04 2.322650e-13
6.072838e-04 2.292810e-13
6.107914e-04 2.263360e-13
6.143194e-04 2.234280e-13
6.178676e-04 2.205580e-13
6.214364e-04 2.177250e-13
6.250258e-04 2.149280e-13
6.286359e-04 2.121670e-13
6.322669e-04 2.094410e-13
6.359189e-04 2.067510e-13
6.395919e-04 2.040950e-13
6.432862e-04 2.014730e-13
6.470017e-04 1.988850e-13
6.507388e-04 1.963300e-13
6.544974e-04 1.938080e-13
6.582778e-04 1.913190e-13
6.620800e-04 1.888610e-13
6.659041e-04 1.864350e-13
6.697504e-04 1.840400e-13
6.736188e-04 1.816760e-13
6.775096e-04 1.793420e-13
6.814229e-04 1.770380e-13
6.853587e-04 1.747640e-13
6.893173e-04 1.725190e-13
6.932988e-04 1.703030e-13
6.973033e-04 1.684160e-13
7.013309e-04 1.666440e-13
7.053817e-04 1.648910e-13
7.094560e-04 1.631560e-13
7.135538e-04 1.614390e-13
7.176752e-04 1.597400e-13
7.218205e-04 1.580590e-13
7.259897e-04 1.563960e-13
7.301830e-04 1.547500e-13
7.344005e-04 1.531220e-13
7.386424e-04 1.515110e-13
7.429087e-04 1.499160e-13
7.471998e-04 1.483390e-13
7.515155e-04 1.467780e-13
7.558563e-04 1.452330e-13
7.602221e-04 1.437050e-13
7.646131e-04 1.421930e-13
7.690295e-04 1.406970e-13
7.734713e-04 1.392160e-13
7.779389e-04 1.377510e-13
7.824322e-04 1.363020e-13
7.869515e-04 1.348680e-13
7.914969e-04 1.334480e-13
7.960686e-04 1.320440e-13
8.006666e-04 1.306550e-13
8.052912e-04 1.292800e-13
8.099426e-04 1.279190e-13
8.146208e-04 1.265730e-13
8.193260e-04 1.252420e-13
8.240584e-04 1.239240e-13
8.288181e-04 1.226200e-13
