# f [Hz]    h2 Omge_gw
1.000000e-04 8.829070e-10
1.005776e-04 8.334940e-10
1.011585e-04 7.868460e-10
1.017428e-04 7.428100e-10
1.023305e-04 7.012370e-10
1.029215e-04 6.619920e-10
1.035160e-04 6.249420e-10
1.041139e-04 5.899670e-10
1.047153e-04 5.569480e-10
1.053201e-04 5.257780e-10
1.059284e-04 4.963520e-10
1.065403e-04 4.685730e-10
1.071556e-04 4.436040e-10
1.077746e-04 4.213650e-10
1.083971e-04 4.014090e-10
1.090232e-04 3.834410e-10
1.096529e-04 3.671230e-10
1.102862e-04 3.522390e-10
1.109232e-04 3.385090e-10
1.115639e-04 3.256690e-10
1.122083e-04 3.140160e-10
1.128564e-04 3.029370e-10
1.135083e-04 2.927850e-10
1.141639e-04 2.829770e-10
1.148233e-04 2.741370e-10
1.154865e-04 2.655740e-10
1.161536e-04 2.574420e-10
1.168245e-04 2.499870e-10
1.174992e-04 2.427480e-10
1.181779e-04 2.357190e-10
1.188605e-04 2.293310e-10
1.195470e-04 2.232150e-10
1.202375e-04 2.172610e-10
1.209320e-04 2.114660e-10
1.216305e-04 2.059780e-10
1.223330e-04 2.009560e-10
1.230396e-04 1.960570e-10
1.237503e-04 1.912770e-10
1.244651e-04 1.866130e-10
1.251840e-04 1.820630e-10
1.259070e-04 1.777220e-10
1.266343e-04 1.737970e-10
1.273657e-04 1.699590e-10
1.281014e-04 1.662060e-10
1.288413e-04 1.625350e-10
1.295855e-04 1.589450e-10
1.303339e-04 1.554350e-10
1.310867e-04 1.520020e-10
1.318439e-04 1.486460e-10
1.326054e-04 1.455710e-10
1.333713e-04 1.426910e-10
1.341417e-04 1.398680e-10
1.349165e-04 1.371010e-10
1.356958e-04 1.343890e-10
1.364795e-04 1.317300e-10
1.372678e-04 1.291240e-10
1.380607e-04 1.265700e-10
1.388581e-04 1.240660e-10
1.396602e-04 1.216110e-10
1.404668e-04 1.192060e-10
1.412782e-04 1.168470e-10
1.420942e-04 1.145360e-10
1.429149e-04 1.124120e-10
1.437404e-04 1.104480e-10
1.445706e-04 1.085170e-10
1.454057e-04 1.066210e-10
1.462455e-04 1.047580e-10
1.470902e-04 1.029270e-10
1.479398e-04 1.011280e-10
1.487943e-04 9.936080e-11
1.496537e-04 9.762430e-11
1.505181e-04 9.591820e-11
1.513875e-04 9.424200e-11
1.522619e-04 9.259500e-11
1.531414e-04 9.097680e-11
1.540259e-04 8.938690e-11
1.549156e-04 8.782470e-11
1.558103e-04 8.628990e-11
1.567103e-04 8.478190e-11
1.576155e-04 8.330020e-11
1.585258e-04 8.184440e-11
1.594415e-04 8.041410e-11
1.603624e-04 7.900880e-11
1.612886e-04 7.762800e-11
1.622202e-04 7.642050e-11
1.631572e-04 7.526170e-11
1.640996e-04 7.412040e-11
1.650474e-04 7.299650e-11
1.660008e-04 7.188960e-11
1.669596e-04 7.079950e-11
1.679239e-04 6.972590e-11
1.688938e-04 6.866860e-11
1.698694e-04 6.762730e-11
1.708505e-04 6.660180e-11
1.718373e-04 6.559190e-11
1.728299e-04 6.459730e-11
1.738281e-04 6.361770e-11
1.748322e-04 6.265300e-11
1.758420e-04 6.170300e-11
1.768576e-04 6.076730e-11
1.778792e-04 5.984590e-11
1.789066e-04 5.893840e-11
1.799399e-04 5.804470e-11
1.809793e-04 5.716450e-11
1.820246e-04 5.629770e-11
1.830760e-04 5.544400e-11
1.841334e-04 5.460320e-11
1.851969e-04 5.377530e-11
1.862666e-04 5.295980e-11
1.873425e-04 5.215680e-11
1.884246e-04 5.136590e-11
1.895129e-04 5.058700e-11
1.906075e-04 4.981990e-11
1.917085e-04 4.906440e-11
1.928158e-04 4.832040e-11
1.939295e-04 4.758770e-11
1.950496e-04 4.686610e-11
1.961762e-04 4.615540e-11
1.973093e-04 4.545550e-11
1.984490e-04 4.476630e-11
1.995952e-04 4.408740e-11
2.007480e-04 4.341890e-11
2.019076e-04 4.276050e-11
2.030738e-04 4.211210e-11
2.042467e-04 4.148180e-11
2.054264e-04 4.094900e-11
2.066130e-04 4.042290e-11
2.078064e-04 3.990370e-11
2.090066e-04 3.939110e-11
2.102139e-04 3.888510e-11
2.114280e-04 3.838550e-11
2.126492e-04 3.789240e-11
2.138775e-04 3.740570e-11
2.151128e-04 3.692520e-11
2.163553e-04 3.645080e-11
2.176050e-04 3.598260e-11
2.188619e-04 3.552040e-11
2.201260e-04 3.506410e-11
2.213974e-04 3.461360e-11
2.226762e-04 3.416900e-11
2.239624e-04 3.373010e-11
2.252560e-04 3.329680e-11
2.265571e-04 3.286900e-11
2.278656e-04 3.244680e-11
2.291818e-04 3.203000e-11
2.305055e-04 3.161850e-11
2.318369e-04 3.121240e-11
2.331760e-04 3.081140e-11
2.345228e-04 3.041560e-11
2.358774e-04 3.002490e-11
2.372398e-04 2.963920e-11
2.386101e-04 2.925850e-11
2.399883e-04 2.888260e-11
2.413745e-04 2.851160e-11
2.427686e-04 2.814530e-11
2.441709e-04 2.778380e-11
2.455812e-04 2.742690e-11
2.469997e-04 2.707460e-11
2.484263e-04 2.672680e-11
2.498612e-04 2.638340e-11
2.513044e-04 2.604450e-11
2.527559e-04 2.570990e-11
2.542158e-04 2.537970e-11
2.556842e-04 2.505360e-11
2.571610e-04 2.473180e-11
2.586463e-04 2.441410e-11
2.601403e-04 2.410050e-11
2.616428e-04 2.379090e-11
2.631541e-04 2.348530e-11
2.646740e-04 2.318360e-11
2.662028e-04 2.288580e-11
2.677404e-04 2.259180e-11
2.692868e-04 2.230160e-11
2.708422e-04 2.201510e-11
2.724066e-04 2.173230e-11
2.739800e-04 2.145310e-11
2.755625e-04 2.117750e-11
2.771541e-04 2.090550e-11
2.787550e-04 2.063690e-11
2.803650e-04 2.037180e-11
2.819844e-04 2.011010e-11
2.836131e-04 1.985180e-11
2.852513e-04 1.959680e-11
2.868989e-04 1.934510e-11
2.885560e-04 1.909650e-11
2.902227e-04 1.885120e-11
2.918990e-04 1.860910e-11
2.935850e-04 1.837000e-11
2.952807e-04 1.813400e-11
2.969863e-04 1.790110e-11
2.987016e-04 1.767110e-11
3.004269e-04 1.744410e-11
3.021622e-04 1.722010e-11
3.039075e-04 1.699880e-11
3.056628e-04 1.678050e-11
3.074283e-04 1.656490e-11
3.092040e-04 1.635210e-11
3.109900e-04 1.614210e-11
3.127862e-04 1.593470e-11
3.145929e-04 1.573000e-11
3.164099e-04 1.552790e-11
3.182375e-04 1.532850e-11
3.200756e-04 1.513160e-11
3.219244e-04 1.493720e-11
3.237838e-04 1.474530e-11
3.256540e-04 1.455590e-11
3.275349e-04 1.436890e-11
3.294268e-04 1.418430e-11
3.313295e-04 1.400210e-11
3.332433e-04 1.385420e-11
3.351681e-04 1.370840e-11
3.371040e-04 1.356420e-11
3.390511e-04 1.342140e-11
3.410094e-04 1.328020e-11
3.429791e-04 1.314050e-11
3.449601e-04 1.300220e-11
3.469526e-04 1.286540e-11
3.489566e-04 1.273000e-11
3.509721e-04 1.259600e-11
3.529993e-04 1.246350e-11
3.550382e-04 1.233240e-11
3.570889e-04 1.220260e-11
3.591515e-04 1.207420e-11
3.612259e-04 1.194710e-11
3.633123e-04 1.182140e-11
3.654108e-04 1.169700e-11
3.675214e-04 1.157390e-11
3.696442e-04 1.145210e-11
3.717792e-04 1.133160e-11
3.739266e-04 1.121240e-11
3.760864e-04 1.109440e-11
3.782587e-04 1.097770e-11
3.804435e-04 1.086220e-11
3.826409e-04 1.074790e-11
3.848510e-04 1.063480e-11
3.870739e-04 1.052290e-11
3.893096e-04 1.041210e-11
3.915583e-04 1.030260e-11
3.938199e-04 1.019420e-11
3.960946e-04 1.008690e-11
3.983824e-04 9.980750e-12
4.006834e-04 9.875730e-12
4.029978e-04 9.771810e-12
4.053255e-04 9.668980e-12
4.076666e-04 9.567240e-12
4.100213e-04 9.466570e-12
4.123896e-04 9.366960e-12
4.147715e-04 9.268390e-12
4.171672e-04 9.170860e-12
4.195767e-04 9.074360e-12
4.220002e-04 8.978880e-12
4.244377e-04 8.884390e-12
4.268892e-04 8.790910e-12
4.293549e-04 8.698400e-12
4.318348e-04 8.606870e-12
4.343291e-04 8.516310e-12
4.368377e-04 8.426690e-12
4.393609e-04 8.338020e-12
4.418986e-04 8.250280e-12
4.444510e-04 8.163470e-12
4.470182e-04 8.077570e-12
4.496001e-04 7.992570e-12
4.521970e-04 7.908470e-12
4.548089e-04 7.825250e-12
4.574358e-04 7.742910e-12
4.600779e-04 7.661430e-12
4.627353e-04 7.580810e-12
4.654081e-04 7.501040e-12
4.680963e-04 7.422110e-12
4.708000e-04 7.344010e-12
4.735193e-04 7.266730e-12
4.762543e-04 7.190270e-12
4.790051e-04 7.114610e-12
4.817719e-04 7.039740e-12
4.845545e-04 6.965670e-12
4.873533e-04 6.892370e-12
4.901682e-04 6.819840e-12
4.929994e-04 6.748080e-12
4.958470e-04 6.677070e-12
4.987110e-04 6.606810e-12
5.015915e-04 6.537290e-12
5.044887e-04 6.468500e-12
5.074026e-04 6.400440e-12
5.103333e-04 6.333090e-12
5.132810e-04 6.266450e-12
5.162457e-04 6.200510e-12
5.192275e-04 6.135260e-12
5.222265e-04 6.070700e-12
5.252429e-04 6.006820e-12
5.282767e-04 5.943620e-12
5.313280e-04 5.881070e-12
5.343969e-04 5.819190e-12
5.374836e-04 5.757960e-12
5.405880e-04 5.697370e-12
5.437105e-04 5.637420e-12
5.468509e-04 5.578100e-12
5.500095e-04 5.519400e-12
5.531863e-04 5.461320e-12
5.563815e-04 5.403850e-12
5.595951e-04 5.346990e-12
5.628273e-04 5.290730e-12
5.660782e-04 5.235050e-12
5.693479e-04 5.179970e-12
5.726364e-04 5.125460e-12
5.759439e-04 5.071530e-12
5.792705e-04 5.018160e-12
5.826164e-04 4.965360e-12
5.859815e-04 4.913110e-12
5.893662e-04 4.861410e-12
5.927703e-04 4.810250e-12
5.961941e-04 4.759640e-12
5.996377e-04 4.709550e-12
6.031012e-04 4.660000e-12
6.065847e-04 4.610960e-12
6.100883e-04 4.562440e-12
6.136121e-04 4.514430e-12
6.171563e-04 4.466930e-12
6.207210e-04 4.419930e-12
6.243063e-04 4.373420e-12
6.279122e-04 4.327400e-12
6.315390e-04 4.281860e-12
6.351868e-04 4.236800e-12
6.388556e-04 4.192220e-12
6.425456e-04 4.148110e-12
6.462569e-04 4.104460e-12
6.499897e-04 4.061270e-12
6.537440e-04 4.018540e-12
6.575200e-04 3.976250e-12
6.613178e-04 3.934410e-12
6.651375e-04 3.893010e-12
6.689793e-04 3.852040e-12
6.728433e-04 3.811510e-12
6.767297e-04 3.771400e-12
6.806384e-04 3.731720e-12
6.845698e-04 3.692450e-12
6.885238e-04 3.653600e-12
6.925007e-04 3.615150e-12
6.965005e-04 3.577110e-12
7.005235e-04 3.539470e-12
7.045697e-04 3.502220e-12
7.086393e-04 3.465370e-12
7.127323e-04 3.428910e-12
7.168490e-04 3.392830e-12
7.209895e-04 3.357120e-12
7.251539e-04 3.321800e-12
7.293424e-04 3.286850e-12
7.335551e-04 3.252260e-12
7.377920e-04 3.218040e-12
7.420535e-04 3.184170e-12
7.463396e-04 3.150670e-12
7.506504e-04 3.117520e-12
7.549861e-04 3.084710e-12
7.593469e-04 3.052250e-12
7.637328e-04 3.020130e-12
7.681441e-04 2.988350e-12
7.725809e-04 2.956910e-12
7.770433e-04 2.925790e-12
7.815315e-04 2.895340e-12
7.860456e-04 2.871620e-12
7.905857e-04 2.848090e-12
7.951521e-04 2.824750e-12
7.997449e-04 2.801610e-12
8.043642e-04 2.778650e-12
8.090102e-04 2.755880e-12
8.136830e-04 2.733300e-12
8.183828e-04 2.710910e-12
8.231097e-04 2.688690e-12
8.278640e-04 2.666660e-12
8.326457e-04 2.644810e-12
8.374550e-04 2.623140e-12
8.422921e-04 2.601650e-12
8.471572e-04 2.580330e-12
8.520503e-04 2.559190e-12
8.569717e-04 2.538220e-12
8.619215e-04 2.517420e-12
8.669000e-04 2.496790e-12
8.719071e-04 2.476330e-12
8.769432e-04 2.456040e-12
8.820084e-04 2.435920e-12
8.871029e-04 2.415960e-12
8.922267e-04 2.396160e-12
8.973802e-04 2.376530e-12
9.025634e-04 2.357050e-12
9.077766e-04 2.337740e-12
9.130199e-04 2.318590e-12
9.182935e-04 2.299590e-12
9.235975e-04 2.280750e-12
9.289321e-04 2.262060e-12
9.342976e-04 2.243520e-12
9.396941e-04 2.225140e-12
9.451217e-04 2.206910e-12
9.505807e-04 2.188820e-12
9.560712e-04 2.170890e-12
9.615934e-04 2.153100e-12
9.671476e-04 2.135460e-12
9.727338e-04 2.117960e-12
9.783522e-04 2.100610e-12
9.840032e-04 2.083390e-12
9.896867e-04 2.066320e-12
9.954031e-04 2.049390e-12
1.001153e-03 2.032600e-12
1.006935e-03 2.015940e-12
1.012751e-03 1.999430e-12
1.018601e-03 1.983040e-12
1.024484e-03 1.966790e-12
1.030402e-03 1.950680e-12
1.036353e-03 1.934690e-12
1.042339e-03 1.918840e-12
1.048360e-03 1.903120e-12
1.054415e-03 1.887530e-12
1.060505e-03 1.872060e-12
1.066631e-03 1.856720e-12
1.072791e-03 1.841510e-12
1.078988e-03 1.826420e-12
1.085220e-03 1.811450e-12
1.091488e-03 1.796610e-12
1.097793e-03 1.781890e-12
1.104133e-03 1.767290e-12
1.110511e-03 1.752810e-12
1.116925e-03 1.738440e-12
1.123376e-03 1.724200e-12
1.129865e-03 1.710070e-12
1.136391e-03 1.696060e-12
1.142955e-03 1.682160e-12
1.149556e-03 1.668380e-12
1.156196e-03 1.654710e-12
1.162874e-03 1.641150e-12
1.169591e-03 1.627700e-12
1.176347e-03 1.614370e-12
1.183141e-03 1.601140e-12
1.189975e-03 1.588020e-12
1.196848e-03 1.575010e-12
1.203761e-03 1.562100e-12
1.210714e-03 1.549300e-12
1.217707e-03 1.536610e-12
1.224740e-03 1.524020e-12
1.231814e-03 1.511530e-12
1.238929e-03 1.499140e-12
1.246085e-03 1.486860e-12
1.253283e-03 1.474680e-12
1.260522e-03 1.462590e-12
1.267802e-03 1.450610e-12
1.275125e-03 1.438720e-12
1.282490e-03 1.426930e-12
1.289898e-03 1.415240e-12
1.297348e-03 1.403640e-12
1.304842e-03 1.392140e-12
1.312378e-03 1.380740e-12
1.319959e-03 1.369420e-12
1.327583e-03 1.358200e-12
1.335251e-03 1.347070e-12
1.342963e-03 1.336030e-12
1.350720e-03 1.325090e-12
1.358522e-03 1.314230e-12
1.366368e-03 1.303460e-12
1.374260e-03 1.292780e-12
1.382198e-03 1.282190e-12
1.390182e-03 1.271680e-12
1.398211e-03 1.261260e-12
1.406287e-03 1.250930e-12
1.414410e-03 1.240680e-12
1.422579e-03 1.230510e-12
1.430796e-03 1.220430e-12
1.439060e-03 1.210430e-12
1.447372e-03 1.200510e-12
1.455732e-03 1.190670e-12
1.464141e-03 1.180920e-12
1.472597e-03 1.171240e-12
1.481103e-03 1.161640e-12
1.489658e-03 1.152130e-12
1.498262e-03 1.142690e-12
1.506916e-03 1.133320e-12
1.515620e-03 1.124040e-12
1.524374e-03 1.114830e-12
1.533179e-03 1.105690e-12
1.542034e-03 1.096630e-12
1.550941e-03 1.087650e-12
1.559899e-03 1.078730e-12
1.568909e-03 1.069890e-12
1.577971e-03 1.061130e-12
1.587085e-03 1.052430e-12
1.596252e-03 1.043810e-12
1.605472e-03 1.035260e-12
1.614745e-03 1.026770e-12
1.624072e-03 1.018360e-12
1.633453e-03 1.010020e-12
1.642887e-03 1.001740e-12
1.652377e-03 9.935320e-13
1.661921e-03 9.853920e-13
1.671520e-03 9.773170e-13
1.681175e-03 9.693090e-13
1.690885e-03 9.613670e-13
1.700651e-03 9.534900e-13
1.710474e-03 9.456770e-13
1.720354e-03 9.379280e-13
1.730291e-03 9.302430e-13
1.740285e-03 9.226210e-13
1.750337e-03 9.150610e-13
1.760446e-03 9.075630e-13
1.770615e-03 9.001260e-13
1.780842e-03 8.927510e-13
1.791128e-03 8.854360e-13
1.801473e-03 8.781810e-13
1.811878e-03 8.709850e-13
1.822344e-03 8.638480e-13
1.832870e-03 8.567700e-13
1.843456e-03 8.497500e-13
1.854104e-03 8.427870e-13
1.864813e-03 8.358810e-13
1.875584e-03 8.290320e-13
1.886418e-03 8.222390e-13
1.897313e-03 8.155020e-13
1.908272e-03 8.088200e-13
1.919294e-03 8.021920e-13
1.930380e-03 7.956190e-13
1.941530e-03 7.906900e-13
1.952744e-03 7.860570e-13
1.964023e-03 7.814510e-13
1.975367e-03 7.768720e-13
1.986777e-03 7.723200e-13
1.998252e-03 7.677950e-13
2.009794e-03 7.632960e-13
2.021403e-03 7.588230e-13
2.033078e-03 7.543760e-13
2.044821e-03 7.499560e-13
2.056632e-03 7.455620e-13
2.068511e-03 7.411930e-13
2.080459e-03 7.368500e-13
2.092475e-03 7.325320e-13
2.104561e-03 7.282400e-13
2.116717e-03 7.239720e-13
2.128943e-03 7.197300e-13
2.141240e-03 7.155130e-13
2.153608e-03 7.113200e-13
2.166047e-03 7.071520e-13
2.178558e-03 7.030080e-13
2.191141e-03 6.988890e-13
2.203797e-03 6.947940e-13
2.216526e-03 6.907230e-13
2.229329e-03 6.866750e-13
2.242205e-03 6.826520e-13
2.255156e-03 6.786510e-13
2.268182e-03 6.746750e-13
2.281283e-03 6.707210e-13
2.294459e-03 6.667910e-13
2.307712e-03 6.628840e-13
2.321041e-03 6.590000e-13
2.334447e-03 6.551380e-13
2.347931e-03 6.512990e-13
2.361493e-03 6.474830e-13
2.375133e-03 6.436890e-13
2.388851e-03 6.399170e-13
2.402649e-03 6.361680e-13
2.416527e-03 6.324400e-13
2.430484e-03 6.287340e-13
2.444523e-03 6.250500e-13
2.458642e-03 6.213870e-13
2.472843e-03 6.177460e-13
2.487126e-03 6.141260e-13
2.501492e-03 6.105280e-13
2.515940e-03 6.069500e-13
2.530472e-03 6.033940e-13
2.545088e-03 5.998580e-13
2.559789e-03 5.963430e-13
2.574574e-03 5.928490e-13
2.589444e-03 5.893750e-13
2.604401e-03 5.859210e-13
2.619444e-03 5.824880e-13
2.634574e-03 5.790750e-13
2.649791e-03 5.756820e-13
2.665096e-03 5.723080e-13
2.680489e-03 5.689550e-13
2.695972e-03 5.656210e-13
2.711544e-03 5.623070e-13
2.727205e-03 5.590120e-13
2.742958e-03 5.557360e-13
2.758801e-03 5.524800e-13
2.774736e-03 5.492420e-13
2.790762e-03 5.460240e-13
2.806882e-03 5.428250e-13
2.823094e-03 5.396440e-13
2.839400e-03 5.364820e-13
2.855800e-03 5.333380e-13
2.872295e-03 5.302130e-13
2.888886e-03 5.271060e-13
2.905572e-03 5.240170e-13
2.922354e-03 5.209470e-13
2.939234e-03 5.178940e-13
2.956211e-03 5.148600e-13
2.973286e-03 5.118430e-13
2.990459e-03 5.088440e-13
3.007732e-03 5.058620e-13
3.025104e-03 5.028980e-13
3.042577e-03 4.999510e-13
3.060151e-03 4.970210e-13
3.077826e-03 4.941090e-13
3.095604e-03 4.912140e-13
3.113484e-03 4.883350e-13
3.131467e-03 4.854740e-13
3.149554e-03 4.826290e-13
3.167746e-03 4.798010e-13
3.186043e-03 4.769900e-13
3.204445e-03 4.741950e-13
3.222954e-03 4.714160e-13
3.241570e-03 4.686540e-13
3.260293e-03 4.659080e-13
3.279124e-03 4.631780e-13
3.298064e-03 4.604630e-13
3.317114e-03 4.577650e-13
3.336273e-03 4.550830e-13
3.355544e-03 4.524160e-13
3.374925e-03 4.497650e-13
3.394418e-03 4.471300e-13
3.414024e-03 4.445100e-13
3.433744e-03 4.429420e-13
3.453577e-03 4.413830e-13
3.473525e-03 4.398290e-13
3.493588e-03 4.382810e-13
3.513766e-03 4.367380e-13
3.534062e-03 4.352010e-13
3.554474e-03 4.336690e-13
3.575005e-03 4.321430e-13
3.595654e-03 4.306220e-13
3.616422e-03 4.291060e-13
3.637311e-03 4.275960e-13
3.658320e-03 4.260900e-13
3.679450e-03 4.245910e-13
3.700702e-03 4.230960e-13
3.722077e-03 4.216070e-13
3.743576e-03 4.201230e-13
3.765199e-03 4.186440e-13
3.786946e-03 4.171700e-13
3.808820e-03 4.157020e-13
3.830819e-03 4.142390e-13
3.852946e-03 4.127810e-13
3.875200e-03 4.113280e-13
3.897583e-03 4.098800e-13
3.920096e-03 4.084370e-13
3.942738e-03 4.069990e-13
3.965511e-03 4.055670e-13
3.988416e-03 4.041390e-13
4.011452e-03 4.027170e-13
4.034622e-03 4.012990e-13
4.057926e-03 3.998870e-13
4.081365e-03 3.984790e-13
4.104938e-03 3.970770e-13
4.128648e-03 3.956790e-13
4.152495e-03 3.942860e-13
4.176480e-03 3.928980e-13
4.200603e-03 3.915150e-13
4.224866e-03 3.901370e-13
4.249268e-03 3.887640e-13
4.273812e-03 3.873950e-13
4.298497e-03 3.860320e-13
4.323325e-03 3.846730e-13
4.348297e-03 3.833190e-13
4.373412e-03 3.819700e-13
4.398673e-03 3.806250e-13
4.424079e-03 3.792860e-13
4.449633e-03 3.779500e-13
4.475334e-03 3.766200e-13
4.501183e-03 3.752940e-13
4.527182e-03 3.739730e-13
4.553330e-03 3.726570e-13
4.579630e-03 3.713450e-13
4.606082e-03 3.700380e-13
4.632687e-03 3.687360e-13
4.659445e-03 3.674380e-13
4.686358e-03 3.661440e-13
4.713426e-03 3.654510e-13
4.740650e-03 3.650220e-13
4.768032e-03 3.645930e-13
4.795572e-03 3.641650e-13
4.823271e-03 3.637370e-13
4.851130e-03 3.633090e-13
4.879150e-03 3.628830e-13
4.907332e-03 3.624560e-13
4.935676e-03 3.620310e-13
4.964185e-03 3.616050e-13
4.992858e-03 3.611810e-13
5.021696e-03 3.607560e-13
5.050701e-03 3.603330e-13
5.079874e-03 3.599090e-13
5.109215e-03 3.594860e-13
5.138726e-03 3.590640e-13
5.168407e-03 3.586420e-13
5.198259e-03 3.582210e-13
5.228284e-03 3.578000e-13
5.258482e-03 3.573800e-13
5.288855e-03 3.569600e-13
5.319403e-03 3.565410e-13
5.350128e-03 3.561220e-13
5.381030e-03 3.557040e-13
5.412111e-03 3.552860e-13
5.443371e-03 3.548690e-13
5.474812e-03 3.544520e-13
5.506434e-03 3.540350e-13
5.538239e-03 3.536190e-13
5.570228e-03 3.532040e-13
5.602401e-03 3.527890e-13
5.634760e-03 3.523750e-13
5.667306e-03 3.519610e-13
5.700040e-03 3.515470e-13
5.732964e-03 3.511340e-13
5.766077e-03 3.507220e-13
5.799382e-03 3.503100e-13
5.832879e-03 3.505600e-13
5.866569e-03 3.509720e-13
5.900454e-03 3.513850e-13
5.934535e-03 3.517980e-13
5.968813e-03 3.522120e-13
6.003288e-03 3.526260e-13
6.037963e-03 3.530410e-13
6.072838e-03 3.534560e-13
6.107914e-03 3.538710e-13
6.143194e-03 3.542880e-13
6.178676e-03 3.547040e-13
6.214364e-03 3.551210e-13
6.250258e-03 3.555390e-13
6.286359e-03 3.559570e-13
6.322669e-03 3.563760e-13
6.359189e-03 3.567950e-13
6.395919e-03 3.572150e-13
6.432862e-03 3.576350e-13
6.470017e-03 3.580550e-13
6.507388e-03 3.584760e-13
6.544974e-03 3.588980e-13
6.582778e-03 3.593200e-13
6.620800e-03 3.597430e-13
6.659041e-03 3.601660e-13
6.697504e-03 3.605890e-13
6.736188e-03 3.610130e-13
6.775096e-03 3.614380e-13
6.814229e-03 3.618630e-13
6.853587e-03 3.622890e-13
6.893173e-03 3.627150e-13
6.932988e-03 3.636800e-13
6.973033e-03 3.649650e-13
7.013309e-03 3.662540e-13
7.053817e-03 3.675480e-13
7.094560e-03 3.688460e-13
7.135538e-03 3.701490e-13
7.176752e-03 3.714570e-13
7.218205e-03 3.727690e-13
7.259897e-03 3.740860e-13
7.301830e-03 3.754070e-13
7.344005e-03 3.767330e-13
7.386424e-03 3.780640e-13
7.429087e-03 3.793990e-13
7.471998e-03 3.807390e-13
7.515155e-03 3.820840e-13
7.558563e-03 3.834340e-13
7.602221e-03 3.847880e-13
7.646131e-03 3.861480e-13
7.690295e-03 3.875120e-13
7.734713e-03 3.888810e-13
7.779389e-03 3.902540e-13
7.824322e-03 3.916330e-13
7.869515e-03 3.930160e-13
7.914969e-03 3.944040e-13
7.960686e-03 3.957980e-13
8.006666e-03 3.971960e-13
8.052912e-03 3.985990e-13
8.099426e-03 4.000070e-13
8.146208e-03 4.014200e-13
8.193260e-03 4.031330e-13
8.240584e-03 4.055090e-13
8.288181e-03 4.078990e-13
